---- Page: "DC Sweep"
---- Graph: "DC Transfer Characteristic"
---- Left Axis: LINEAR "Current (A)"
---- Bottom Axis: LINEAR "vvce1 Voltage (V)"
---- Trace: 1 LEFT BOTTOM "vvbe=0.55; I(QU1[IC])"
0.000000000000e+00	-3.200481892128e-06
1.000000000000e-02	5.478294873635e-06
2.000000000000e-02	1.138339256363e-05
3.000000000000e-02	1.539977199932e-05
4.000000000000e-02	1.813097420358e-05
5.000000000000e-02	1.998811031709e-05
6.000000000000e-02	2.125098233369e-05
7.000000000000e-02	2.210991571575e-05
8.000000000000e-02	2.269432291919e-05
9.000000000000e-02	2.309217540607e-05
1.000000000000e-01	2.336326343484e-05
1.100000000000e-01	2.354821886046e-05
1.200000000000e-01	2.367465173710e-05
1.300000000000e-01	2.376132253292e-05
1.400000000000e-01	2.382097812046e-05
1.500000000000e-01	2.386227918870e-05
1.600000000000e-01	2.389111002197e-05
1.700000000000e-01	2.391146849978e-05
1.800000000000e-01	2.392607082523e-05
1.900000000000e-01	2.393676240633e-05
2.000000000000e-01	2.394479702192e-05
2.100000000000e-01	2.395102649309e-05
2.200000000000e-01	2.395602954859e-05
2.300000000000e-01	2.396019937732e-05
2.400000000000e-01	2.396380311198e-05
2.500000000000e-01	2.396702224257e-05
2.600000000000e-01	2.396998007334e-05
2.700000000000e-01	2.397276037717e-05
2.800000000000e-01	2.397542006930e-05
2.900000000000e-01	2.397799781794e-05
3.000000000000e-01	2.398051989421e-05
3.100000000000e-01	2.398300414673e-05
3.200000000000e-01	2.398546270182e-05
3.300000000000e-01	2.398790379809e-05
3.400000000000e-01	2.399033303285e-05
3.500000000000e-01	2.399275420891e-05
3.600000000000e-01	2.399516990990e-05
3.700000000000e-01	2.399758189114e-05
3.800000000000e-01	2.399999134517e-05
3.900000000000e-01	2.400239908222e-05
4.000000000000e-01	2.400480565276e-05
4.100000000000e-01	2.400721143078e-05
4.200000000000e-01	2.400961667035e-05
4.300000000000e-01	2.401202154411e-05
4.400000000000e-01	2.401442616933e-05
4.500000000000e-01	2.401683062570e-05
4.600000000000e-01	2.401923496735e-05
4.700000000000e-01	2.402163923106e-05
4.800000000000e-01	2.402404344182e-05
4.900000000000e-01	2.402644761661e-05
5.000000000000e-01	2.402885176695e-05
5.100000000000e-01	2.403125590070e-05
5.200000000000e-01	2.403366002316e-05
5.300000000000e-01	2.403606413796e-05
5.400000000000e-01	2.403846824755e-05
5.500000000000e-01	2.404087235361e-05
5.600000000000e-01	2.404327645726e-05
5.700000000000e-01	2.404568055929e-05
5.800000000000e-01	2.404808466020e-05
5.900000000000e-01	2.405048876037e-05
6.000000000000e-01	2.405289286002e-05
6.100000000000e-01	2.405529695933e-05
6.200000000000e-01	2.405770105841e-05
6.300000000000e-01	2.406010515732e-05
6.400000000000e-01	2.406250925613e-05
6.500000000000e-01	2.406491335487e-05
6.600000000000e-01	2.406731745355e-05
6.700000000000e-01	2.406972155221e-05
6.800000000000e-01	2.407212565085e-05
6.900000000000e-01	2.407452974947e-05
7.000000000000e-01	2.407693384808e-05
7.100000000000e-01	2.407933794669e-05
7.200000000000e-01	2.408174204529e-05
7.300000000000e-01	2.408414614389e-05
7.400000000000e-01	2.408655024249e-05
7.500000000000e-01	2.408895434110e-05
7.600000000000e-01	2.409135843970e-05
7.700000000000e-01	2.409376253831e-05
7.800000000000e-01	2.409616663691e-05
7.900000000000e-01	2.409857073552e-05
8.000000000000e-01	2.410097483413e-05
8.100000000000e-01	2.410337893274e-05
8.200000000000e-01	2.410578303136e-05
8.300000000000e-01	2.410818712997e-05
8.400000000000e-01	2.411059122859e-05
8.500000000000e-01	2.411299532721e-05
8.600000000000e-01	2.411539942583e-05
8.700000000000e-01	2.411780352445e-05
8.800000000000e-01	2.412020762308e-05
8.900000000000e-01	2.412261172171e-05
9.000000000000e-01	2.412501582034e-05
9.100000000000e-01	2.412741991897e-05
9.200000000000e-01	2.412982401760e-05
9.300000000000e-01	2.413222811624e-05
9.400000000000e-01	2.413463221487e-05
9.500000000000e-01	2.413703631351e-05
9.600000000000e-01	2.413944041215e-05
9.700000000000e-01	2.414184451080e-05
9.800000000000e-01	2.414424860944e-05
9.900000000000e-01	2.414665270809e-05
1.000000000000e+00	2.414905680674e-05
1.010000000000e+00	2.415146090539e-05
1.020000000000e+00	2.415386500404e-05
1.030000000000e+00	2.415626910270e-05
1.040000000000e+00	2.415867320136e-05
1.050000000000e+00	2.416107730002e-05
1.060000000000e+00	2.416348139868e-05
1.070000000000e+00	2.416588549734e-05
1.080000000000e+00	2.416828959601e-05
1.090000000000e+00	2.417069369467e-05
1.100000000000e+00	2.417309779334e-05
1.110000000000e+00	2.417550189201e-05
1.120000000000e+00	2.417790599069e-05
1.130000000000e+00	2.418031008936e-05
1.140000000000e+00	2.418271418804e-05
1.150000000000e+00	2.418511828672e-05
1.160000000000e+00	2.418752238540e-05
1.170000000000e+00	2.418992648408e-05
1.180000000000e+00	2.419233058277e-05
1.190000000000e+00	2.419473468146e-05
1.200000000000e+00	2.419713878015e-05
1.210000000000e+00	2.419954287884e-05
1.220000000000e+00	2.420194697753e-05
1.230000000000e+00	2.420435107623e-05
1.240000000000e+00	2.420675517492e-05
1.250000000000e+00	2.420915927362e-05
1.260000000000e+00	2.421156337232e-05
1.270000000000e+00	2.421396747103e-05
1.280000000000e+00	2.421637156973e-05
1.290000000000e+00	2.421877566844e-05
1.300000000000e+00	2.422117976715e-05
1.310000000000e+00	2.422358386586e-05
1.320000000000e+00	2.422598796457e-05
1.330000000000e+00	2.422839206329e-05
1.340000000000e+00	2.423079616201e-05
1.350000000000e+00	2.423320026073e-05
1.360000000000e+00	2.423560435945e-05
1.370000000000e+00	2.423800845817e-05
1.380000000000e+00	2.424041255690e-05
1.390000000000e+00	2.424281665562e-05
1.400000000000e+00	2.424522075435e-05
1.410000000000e+00	2.424762485308e-05
1.420000000000e+00	2.425002895182e-05
1.430000000000e+00	2.425243305055e-05
1.440000000000e+00	2.425483714929e-05
1.450000000000e+00	2.425724124803e-05
1.460000000000e+00	2.425964534677e-05
1.470000000000e+00	2.426204944551e-05
1.480000000000e+00	2.426445354426e-05
1.490000000000e+00	2.426685764301e-05
1.500000000000e+00	2.426926174176e-05
1.510000000000e+00	2.427166584051e-05
1.520000000000e+00	2.427406993926e-05
1.530000000000e+00	2.427647403802e-05
1.540000000000e+00	2.427887813677e-05
1.550000000000e+00	2.428128223553e-05
1.560000000000e+00	2.428368633429e-05
1.570000000000e+00	2.428609043306e-05
1.580000000000e+00	2.428849453182e-05
1.590000000000e+00	2.429089863059e-05
1.600000000000e+00	2.429330272936e-05
1.610000000000e+00	2.429570682813e-05
1.620000000000e+00	2.429811092690e-05
1.630000000000e+00	2.430051502568e-05
1.640000000000e+00	2.430291912446e-05
1.650000000000e+00	2.430532322323e-05
1.660000000000e+00	2.430772732202e-05
1.670000000000e+00	2.431013142080e-05
1.680000000000e+00	2.431253551958e-05
1.690000000000e+00	2.431493961837e-05
1.700000000000e+00	2.431734371716e-05
1.710000000000e+00	2.431974781595e-05
1.720000000000e+00	2.432215191475e-05
1.730000000000e+00	2.432455601354e-05
1.740000000000e+00	2.432696011234e-05
1.750000000000e+00	2.432936421114e-05
1.760000000000e+00	2.433176830994e-05
1.770000000000e+00	2.433417240874e-05
1.780000000000e+00	2.433657650755e-05
1.790000000000e+00	2.433898060635e-05
1.800000000000e+00	2.434138470516e-05
1.810000000000e+00	2.434378880397e-05
1.820000000000e+00	2.434619290279e-05
1.830000000000e+00	2.434859700160e-05
1.840000000000e+00	2.435100110042e-05
1.850000000000e+00	2.435340519924e-05
1.860000000000e+00	2.435580929806e-05
1.870000000000e+00	2.435821339688e-05
1.880000000000e+00	2.436061749571e-05
1.890000000000e+00	2.436302159454e-05
1.900000000000e+00	2.436542569337e-05
1.910000000000e+00	2.436782979220e-05
1.920000000000e+00	2.437023389103e-05
1.930000000000e+00	2.437263798987e-05
1.940000000000e+00	2.437504208870e-05
1.950000000000e+00	2.437744618754e-05
1.960000000000e+00	2.437985028638e-05
1.970000000000e+00	2.438225438523e-05
1.980000000000e+00	2.438465848407e-05
1.990000000000e+00	2.438706258292e-05
2.000000000000e+00	2.438946668177e-05
2.010000000000e+00	2.439187078062e-05
2.020000000000e+00	2.439427487947e-05
2.030000000000e+00	2.439667897833e-05
2.040000000000e+00	2.439908307718e-05
2.050000000000e+00	2.440148717604e-05
2.060000000000e+00	2.440389127490e-05
2.070000000000e+00	2.440629537377e-05
2.080000000000e+00	2.440869947263e-05
2.090000000000e+00	2.441110357150e-05
2.100000000000e+00	2.441350767037e-05
2.110000000000e+00	2.441591176924e-05
2.120000000000e+00	2.441831586811e-05
2.130000000000e+00	2.442071996699e-05
2.140000000000e+00	2.442312406587e-05
2.150000000000e+00	2.442552816474e-05
2.160000000000e+00	2.442793226363e-05
2.170000000000e+00	2.443033636251e-05
2.180000000000e+00	2.443274046139e-05
2.190000000000e+00	2.443514456028e-05
2.200000000000e+00	2.443754865917e-05
2.210000000000e+00	2.443995275806e-05
2.220000000000e+00	2.444235685696e-05
2.230000000000e+00	2.444476095585e-05
2.240000000000e+00	2.444716505475e-05
2.250000000000e+00	2.444956915365e-05
2.260000000000e+00	2.445197325255e-05
2.270000000000e+00	2.445437735145e-05
2.280000000000e+00	2.445678145036e-05
2.290000000000e+00	2.445918554926e-05
2.300000000000e+00	2.446158964817e-05
2.310000000000e+00	2.446399374708e-05
2.320000000000e+00	2.446639784600e-05
2.330000000000e+00	2.446880194491e-05
2.340000000000e+00	2.447120604383e-05
2.350000000000e+00	2.447361014275e-05
2.360000000000e+00	2.447601424167e-05
2.370000000000e+00	2.447841834059e-05
2.380000000000e+00	2.448082243952e-05
2.390000000000e+00	2.448322653844e-05
2.400000000000e+00	2.448563063737e-05
2.410000000000e+00	2.448803473630e-05
2.420000000000e+00	2.449043883524e-05
2.430000000000e+00	2.449284293417e-05
2.440000000000e+00	2.449524703311e-05
2.450000000000e+00	2.449765113205e-05
2.460000000000e+00	2.450005523099e-05
2.470000000000e+00	2.450245932993e-05
2.480000000000e+00	2.450486342888e-05
2.490000000000e+00	2.450726752783e-05
2.500000000000e+00	2.450967162677e-05
2.510000000000e+00	2.451207572573e-05
2.520000000000e+00	2.451447982468e-05
2.530000000000e+00	2.451688392363e-05
2.540000000000e+00	2.451928802259e-05
2.550000000000e+00	2.452169212155e-05
2.560000000000e+00	2.452409622051e-05
2.570000000000e+00	2.452650031947e-05
2.580000000000e+00	2.452890441844e-05
2.590000000000e+00	2.453130851741e-05
2.600000000000e+00	2.453371261638e-05
2.610000000000e+00	2.453611671535e-05
2.620000000000e+00	2.453852081432e-05
2.630000000000e+00	2.454092491329e-05
2.640000000000e+00	2.454332901227e-05
2.650000000000e+00	2.454573311125e-05
2.660000000000e+00	2.454813721023e-05
2.670000000000e+00	2.455054130921e-05
2.680000000000e+00	2.455294540820e-05
2.690000000000e+00	2.455534950719e-05
2.700000000000e+00	2.455775360618e-05
2.710000000000e+00	2.456015770517e-05
2.720000000000e+00	2.456256180416e-05
2.730000000000e+00	2.456496590315e-05
2.740000000000e+00	2.456737000215e-05
2.750000000000e+00	2.456977410115e-05
2.760000000000e+00	2.457217820015e-05
2.770000000000e+00	2.457458229916e-05
2.780000000000e+00	2.457698639816e-05
2.790000000000e+00	2.457939049717e-05
2.800000000000e+00	2.458179459618e-05
2.810000000000e+00	2.458419869519e-05
2.820000000000e+00	2.458660279420e-05
2.830000000000e+00	2.458900689322e-05
2.840000000000e+00	2.459141099223e-05
2.850000000000e+00	2.459381509125e-05
2.860000000000e+00	2.459621919027e-05
2.870000000000e+00	2.459862328930e-05
2.880000000000e+00	2.460102738832e-05
2.890000000000e+00	2.460343148735e-05
2.900000000000e+00	2.460583558638e-05
2.910000000000e+00	2.460823968541e-05
2.920000000000e+00	2.461064378444e-05
2.930000000000e+00	2.461304788348e-05
2.940000000000e+00	2.461545198251e-05
2.950000000000e+00	2.461785608155e-05
2.960000000000e+00	2.462026018059e-05
2.970000000000e+00	2.462266427964e-05
2.980000000000e+00	2.462506837868e-05
2.990000000000e+00	2.462747247773e-05
3.000000000000e+00	2.462987657678e-05
3.010000000000e+00	2.463228067583e-05
3.020000000000e+00	2.463468477488e-05
3.030000000000e+00	2.463708887394e-05
3.040000000000e+00	2.463949297299e-05
3.050000000000e+00	2.464189707205e-05
3.060000000000e+00	2.464430117111e-05
3.070000000000e+00	2.464670527018e-05
3.080000000000e+00	2.464910936924e-05
3.090000000000e+00	2.465151346831e-05
3.100000000000e+00	2.465391756738e-05
3.110000000000e+00	2.465632166645e-05
3.120000000000e+00	2.465872576552e-05
3.130000000000e+00	2.466112986460e-05
3.140000000000e+00	2.466353396367e-05
3.150000000000e+00	2.466593806275e-05
3.160000000000e+00	2.466834216183e-05
3.170000000000e+00	2.467074626092e-05
3.180000000000e+00	2.467315036000e-05
3.190000000000e+00	2.467555445909e-05
3.200000000000e+00	2.467795855818e-05
3.210000000000e+00	2.468036265727e-05
3.220000000000e+00	2.468276675636e-05
3.230000000000e+00	2.468517085545e-05
3.240000000000e+00	2.468757495455e-05
3.250000000000e+00	2.468997905365e-05
3.260000000000e+00	2.469238315275e-05
3.270000000000e+00	2.469478725185e-05
3.280000000000e+00	2.469719135096e-05
3.290000000000e+00	2.469959545007e-05
3.300000000000e+00	2.470199954918e-05
3.310000000000e+00	2.470440364829e-05
3.320000000000e+00	2.470680774740e-05
3.330000000000e+00	2.470921184651e-05
3.340000000000e+00	2.471161594563e-05
3.350000000000e+00	2.471402004475e-05
3.360000000000e+00	2.471642414387e-05
3.370000000000e+00	2.471882824299e-05
3.380000000000e+00	2.472123234212e-05
3.390000000000e+00	2.472363644125e-05
3.400000000000e+00	2.472604054037e-05
3.410000000000e+00	2.472844463951e-05
3.420000000000e+00	2.473084873864e-05
3.430000000000e+00	2.473325283777e-05
3.440000000000e+00	2.473565693691e-05
3.450000000000e+00	2.473806103605e-05
3.460000000000e+00	2.474046513519e-05
3.470000000000e+00	2.474286923433e-05
3.480000000000e+00	2.474527333348e-05
3.490000000000e+00	2.474767743262e-05
3.500000000000e+00	2.475008153177e-05
3.510000000000e+00	2.475248563092e-05
3.520000000000e+00	2.475488973008e-05
3.530000000000e+00	2.475729382923e-05
3.540000000000e+00	2.475969792839e-05
3.550000000000e+00	2.476210202755e-05
3.560000000000e+00	2.476450612671e-05
3.570000000000e+00	2.476691022587e-05
3.580000000000e+00	2.476931432504e-05
3.590000000000e+00	2.477171842420e-05
3.600000000000e+00	2.477412252337e-05
3.610000000000e+00	2.477652662254e-05
3.620000000000e+00	2.477893072172e-05
3.630000000000e+00	2.478133482089e-05
3.640000000000e+00	2.478373892007e-05
3.650000000000e+00	2.478614301925e-05
3.660000000000e+00	2.478854711843e-05
3.670000000000e+00	2.479095121761e-05
3.680000000000e+00	2.479335531680e-05
3.690000000000e+00	2.479575941598e-05
3.700000000000e+00	2.479816351517e-05
3.710000000000e+00	2.480056761436e-05
3.720000000000e+00	2.480297171355e-05
3.730000000000e+00	2.480537581275e-05
3.740000000000e+00	2.480777991195e-05
3.750000000000e+00	2.481018401115e-05
3.760000000000e+00	2.481258811035e-05
3.770000000000e+00	2.481499220955e-05
3.780000000000e+00	2.481739630875e-05
3.790000000000e+00	2.481980040796e-05
3.800000000000e+00	2.482220450717e-05
3.810000000000e+00	2.482460860638e-05
3.820000000000e+00	2.482701270559e-05
3.830000000000e+00	2.482941680481e-05
3.840000000000e+00	2.483182090403e-05
3.850000000000e+00	2.483422500324e-05
3.860000000000e+00	2.483662910246e-05
3.870000000000e+00	2.483903320169e-05
3.880000000000e+00	2.484143730091e-05
3.890000000000e+00	2.484384140014e-05
3.900000000000e+00	2.484624549937e-05
3.910000000000e+00	2.484864959860e-05
3.920000000000e+00	2.485105369783e-05
3.930000000000e+00	2.485345779707e-05
3.940000000000e+00	2.485586189630e-05
3.950000000000e+00	2.485826599554e-05
3.960000000000e+00	2.486067009478e-05
3.970000000000e+00	2.486307419403e-05
3.980000000000e+00	2.486547829327e-05
3.990000000000e+00	2.486788239252e-05
4.000000000000e+00	2.487028649177e-05
4.010000000000e+00	2.487269059102e-05
4.020000000000e+00	2.487509469027e-05
4.030000000000e+00	2.487749878952e-05
4.040000000000e+00	2.487990288878e-05
4.050000000000e+00	2.488230698804e-05
4.060000000000e+00	2.488471108730e-05
4.070000000000e+00	2.488711518656e-05
4.080000000000e+00	2.488951928583e-05
4.090000000000e+00	2.489192338510e-05
4.100000000000e+00	2.489432748436e-05
4.110000000000e+00	2.489673158363e-05
4.120000000000e+00	2.489913568291e-05
4.130000000000e+00	2.490153978218e-05
4.140000000000e+00	2.490394388146e-05
4.150000000000e+00	2.490634798074e-05
4.160000000000e+00	2.490875208002e-05
4.170000000000e+00	2.491115617930e-05
4.180000000000e+00	2.491356027859e-05
4.190000000000e+00	2.491596437787e-05
4.200000000000e+00	2.491836847716e-05
4.210000000000e+00	2.492077257645e-05
4.220000000000e+00	2.492317667575e-05
4.230000000000e+00	2.492558077504e-05
4.240000000000e+00	2.492798487434e-05
4.250000000000e+00	2.493038897364e-05
4.260000000000e+00	2.493279307294e-05
4.270000000000e+00	2.493519717224e-05
4.280000000000e+00	2.493760127154e-05
4.290000000000e+00	2.494000537085e-05
4.300000000000e+00	2.494240947016e-05
4.310000000000e+00	2.494481356947e-05
4.320000000000e+00	2.494721766878e-05
4.330000000000e+00	2.494962176810e-05
4.340000000000e+00	2.495202586741e-05
4.350000000000e+00	2.495442996673e-05
4.360000000000e+00	2.495683406605e-05
4.370000000000e+00	2.495923816538e-05
4.380000000000e+00	2.496164226470e-05
4.390000000000e+00	2.496404636403e-05
4.400000000000e+00	2.496645046336e-05
4.410000000000e+00	2.496885456269e-05
4.420000000000e+00	2.497125866202e-05
4.430000000000e+00	2.497366276135e-05
4.440000000000e+00	2.497606686069e-05
4.450000000000e+00	2.497847096003e-05
4.460000000000e+00	2.498087505937e-05
4.470000000000e+00	2.498327915871e-05
4.480000000000e+00	2.498568325806e-05
4.490000000000e+00	2.498808735741e-05
4.500000000000e+00	2.499049145675e-05
4.510000000000e+00	2.499289555610e-05
4.520000000000e+00	2.499529965546e-05
4.530000000000e+00	2.499770375481e-05
4.540000000000e+00	2.500010785417e-05
4.550000000000e+00	2.500251195353e-05
4.560000000000e+00	2.500491605289e-05
4.570000000000e+00	2.500732015225e-05
4.580000000000e+00	2.500972425162e-05
4.590000000000e+00	2.501212835098e-05
4.600000000000e+00	2.501453245035e-05
4.610000000000e+00	2.501693654972e-05
4.620000000000e+00	2.501934064909e-05
4.630000000000e+00	2.502174474847e-05
4.640000000000e+00	2.502414884785e-05
4.650000000000e+00	2.502655294722e-05
4.660000000000e+00	2.502895704660e-05
4.670000000000e+00	2.503136114599e-05
4.680000000000e+00	2.503376524537e-05
4.690000000000e+00	2.503616934476e-05
4.700000000000e+00	2.503857344415e-05
4.710000000000e+00	2.504097754354e-05
4.720000000000e+00	2.504338164293e-05
4.730000000000e+00	2.504578574233e-05
4.740000000000e+00	2.504818984172e-05
4.750000000000e+00	2.505059394112e-05
4.760000000000e+00	2.505299804052e-05
4.770000000000e+00	2.505540213992e-05
4.780000000000e+00	2.505780623933e-05
4.790000000000e+00	2.506021033874e-05
4.800000000000e+00	2.506261443814e-05
4.810000000000e+00	2.506501853755e-05
4.820000000000e+00	2.506742263697e-05
4.830000000000e+00	2.506982673638e-05
4.840000000000e+00	2.507223083580e-05
4.850000000000e+00	2.507463493522e-05
4.860000000000e+00	2.507703903464e-05
4.870000000000e+00	2.507944313406e-05
4.880000000000e+00	2.508184723349e-05
4.890000000000e+00	2.508425133291e-05
4.900000000000e+00	2.508665543234e-05
4.910000000000e+00	2.508905953177e-05
4.920000000000e+00	2.509146363120e-05
4.930000000000e+00	2.509386773064e-05
4.940000000000e+00	2.509627183007e-05
4.950000000000e+00	2.509867592951e-05
4.960000000000e+00	2.510108002895e-05
4.970000000000e+00	2.510348412840e-05
4.980000000000e+00	2.510588822784e-05
4.990000000000e+00	2.510829232729e-05
5.000000000000e+00	2.511069642674e-05
5.010000000000e+00	2.511310052619e-05
5.020000000000e+00	2.511550462564e-05
5.030000000000e+00	2.511790872509e-05
5.040000000000e+00	2.512031282455e-05
5.050000000000e+00	2.512271692401e-05
5.060000000000e+00	2.512512102347e-05
5.070000000000e+00	2.512752512293e-05
5.080000000000e+00	2.512992922240e-05
5.090000000000e+00	2.513233332186e-05
5.100000000000e+00	2.513473742133e-05
5.110000000000e+00	2.513714152080e-05
5.120000000000e+00	2.513954562028e-05
5.130000000000e+00	2.514194971975e-05
5.140000000000e+00	2.514435381923e-05
5.150000000000e+00	2.514675791871e-05
5.160000000000e+00	2.514916201819e-05
5.170000000000e+00	2.515156611767e-05
5.180000000000e+00	2.515397021715e-05
5.190000000000e+00	2.515637431664e-05
5.200000000000e+00	2.515877841613e-05
